"Wavelength","dye1","dye2","dye3"
300,95.59974818331001,78.21203172690817,78.27844101269199
301,95.88218382820233,78.47787114637492,78.6768342870103
302,96.15583782382696,78.74312560092868,79.0732207082942
303,96.42063030062367,79.00778306801662,79.46754961724815
304,96.67648382711532,79.27183151847626,79.8597704163537
305,96.92332344763442,79.53525891742441,80.24983258052887
306,97.16107671891228,79.7980532251495,80.63768566782188
307,97.38967374550572,80.0602023980074,81.02327933013635
308,97.60904721403702,80.32169438932067,81.40656332398419
309,97.81913242622375,80.58251715028092,81.78748752126391
310,98.01986733067552,80.84265863085436,82.16600192006035
311,98.21119255343638,81.10210678069053,82.54205665546307
312,98.39305142725084,81.36084955003385,82.91560201040008
313,98.56539001953453,81.61887489063808,83.2865884264836
314,98.72815715902905,81.87617075668372,83.65496651486458
315,98.88130446112332,82.13272510569784,84.02068706709285
316,99.02478635182348,82.38852589947673,84.38370106597918
317,99.15856009035505,82.64356110501086,84.74395969645656
318,99.28258579038133,82.89781869541244,85.10141435643679
319,99.39682643982343,83.15128665084507,85.4560166676593
320,99.50124791926824,83.40395295945571,85.80771848652876
321,99.59581901895137,83.6558056183088,86.15647191493815
322,99.68051145430329,83.90683263432226,86.50222931107412
323,99.75529988004799,84.15702202520548,86.84494330020055
324,99.82016190284374,84.40636182039897,87.18456678541793
325,99.8750780924581,84.654840062016,87.52105295839415
326,99.92003199146839,84.90244480578559,87.85435531006416
327,99.95501012348143,85.14916412199696,88.18442764129455
328,99.98000199986667,85.3949860964456,88.51122407350967
329,99.99500012499793,85.6398988313805,88.83469905927625
330,100.0,85.88389044645255,89.1548073928428
331,99.99500012499793,86.12694907966406,89.47150422063041
332,99.98000199986667,86.36906288831922,89.78474505167172
333,99.95501012348143,86.6102200499755,90.09448576799448
334,99.92003199146839,86.85040876339566,90.40068263494653
335,99.8750780924581,87.08961724950079,90.70329231145855
336,99.82016190284374,87.32783375232333,91.00227186024155
337,99.75529988004799,87.56504653996107,91.2975787579155
338,99.68051145430329,87.80124390553124,91.58917090506583
339,99.59581901895137,88.03641416812478,91.87700663622454
340,99.50124791926824,88.27054567376092,92.16104472977248
341,99.39682643982343,88.50362679634166,92.44124441775976
342,99.28258579038133,88.73564593860615,92.7175653956407
343,99.15856009035505,88.96659153308491,92.98996783192037
344,99.02478635182348,89.19645204305372,93.2584123777092
345,98.88130446112332,89.4252159634872,93.52286017618282
346,98.72815715902905,89.65287182201158,93.78327287194357
347,98.56539001953453,89.87940817985717,94.03961262028075
348,98.39305142725084,90.10481363280988,94.29184209632652
349,98.21119255343638,90.3290768121619,94.53992450410416
350,98.01986733067552,90.5521863856616,94.78382358546583
351,97.81913242622375,90.7741310584619,95.02350362891657
352,97.60904721403702,90.99489957406811,95.25892947832176
353,97.38967374550572,91.21448071528384,95.49006654149504
354,97.16107671891228,91.43286330515592,95.71688079866347
355,96.92332344763442,91.65003620791755,95.93933881080743
356,96.67648382711532,91.8659883299301,96.15740772787223
357,96.42063030062367,92.0807086206228,96.3710552968484
358,96.15583782382696,92.29418607343085,96.58024986971839
359,95.88218382820233,92.50640972673155,96.7849604112663
360,95.59974818331001,92.71736866477822,96.98515650674854
361,95.30861315795484,92.92705201863204,97.1808083694223
362,95.00886338026268,93.13544896709156,97.37188684792952
363,94.70058579669858,93.34254873761981,97.55836343353374
364,94.3838696300543,93.5483406072689,97.74021026720715
365,94.05880633643422,93.75281390360198,97.91740014656554
366,93.72548956126776,93.95595800561247,98.08990653264885
367,93.38401509437892,94.15776234464047,98.25770355654454
368,93.03448082414208,94.3582164052861,98.42076602585186
369,92.67698669075554,94.55730972631999,98.57906943098463
370,92.31163463866359,94.75503190159021,98.73258995131037
371,91.93852856815899,94.95137258092652,98.88130446112329
372,91.55777428619777,95.14632147104047,99.02519053544975
373,91.16947945645906,95.33986833642265,99.16422645568338
374,90.77375354868296,95.53200300023592,99.29839121504838
375,90.37070778731962,95.72271534520516,99.42766452388886
376,89.96045509952316,95.91199531450289,99.55202681478255
377,89.54311006252473,96.09983291263134,99.67145924747662
378,89.11878885041845,96.2862182063001,99.78594371364466
379,88.68760918039538,96.4711413252999,99.89546284146222
380,88.24969025845955,96.65459246337183,100.0
381,87.80515272466162,96.83656187907253,100.09953930343276
382,87.354118597885,97.01703989663467,100.1940656150627
383,86.89671122021959,97.19601690682285,100.28356455115552
384,86.43305520095859,97.37348336778487,100.36802248458831
385,85.96327636025423,97.54942980589828,100.44742654830748
386,85.48750167246696,97.72384681661183,100.5217646385959
387,85.00585920924475,97.89672506528213,100.59102541814768
388,84.51847808236715,98.06805528800497,100.65519831894999
389,84.02548838639021,98.23782829244169,100.71427354497038
390,83.52702114112721,98.40603495864008,100.76824207464922
391,83.02320823400083,98.57266623984968,100.81709566319559
392,82.51418236230211,98.73771316333207,100.86082684468667
393,82.00007697539087,98.90116683116504,100.89942893396922
394,81.48102621687295,99.06301842104119,100.93289602836289
395,80.95716486678869,99.22325918706089,100.96122300916439
396,80.4286282838474,99.38188046051896,100.98440554295249
397,79.8955523477418,99.53887365068584,101.00244008269254
398,79.35807340157669,99.69423024558198,101.01532386864139
399,78.81632819444529,99.84794181274665,101.02305492905077
400,78.27045382418683,100.0,101.02563208067066
401,77.72058768035825,100.15039653619893,101.02305492905077
402,77.16686738745263,100.29912323198633,101.01532386864139
403,76.60943074839663,100.4461719805338,101.00244008269254
404,76.04841568835896,100.59153475827776,100.98440554295249
405,75.48396019890073,100.73520362564834,100.96122300916439
406,74.91620228249927,100.87717072779208,100.93289602836289
407,74.34527989747525,101.01742829528706,100.89942893396922
408,73.77133090335346,101.15596864485119,100.86082684468667
409,73.19449300668627,101.29278418004344,100.81709566319559
410,72.61490370736911,101.42786739195763,100.76824207464922
411,72.03270024547548,101.56121085990908,100.71427354497038
412,71.44801954864036,101.69280725211354,100.65519831894999
413,70.86099818001767,101.82264932635903,100.59102541814768
414,70.27177228683978,101.95072993066981,100.5217646385959
415,69.6804775496035,102.07704200396259,100.44742654830748
416,69.08724913190898,102.20157857669525,100.36802248458831
417,68.49222163097531,102.32433277150757,100.28356455115552
418,67.8955290288568,102.44529780385385,100.1940656150627
419,67.29730464438339,102.56446698262805,100.09953930343276
420,66.69768108584745,102.68183371078004,100.0
421,66.09679020445866,102.7973914859245,99.89546284146222
422,65.49476304858833,102.91113390094098,99.78594371364466
423,64.89172981882297,103.023054644566,99.67145924747662
424,64.2878198238472,103.1331475019764,99.55202681478255
425,63.68316143717432,103.24140635536459,99.42766452388886
426,63.07788205474283,103.34782518450494,99.29839121504838
427,62.47210805339621,103.4523980673117,99.16422645568338
428,61.86596475026225,103.55511918038817,99.02519053544975
429,61.25957636304771,103.65598279956711,98.88130446112329
430,60.653065971263345,103.75498330044235,98.73258995131037
431,60.04655547839322,103.85211515889135,98.57906943098463
432,59.440165575021865,103.94737295158892,98.42076602585186
433,58.834015702931474,104.04075135651189,98.25770355654454
434,58.228224020181344,104.1322451534346,98.08990653264885
435,57.62290736718,104.2218492244152,97.91740014656554
436,57.018181233760515,104.3095585542728,97.74021026720715
437,56.41415972726801,104.3953682310553,97.55836343353374
438,55.810955541668264,104.47927344649774,97.37188684792952
439,55.20867992768467,104.56126949647143,97.1808083694223
440,54.60744266397094,104.64135178142327,96.98515650674854
441,54.007352029325276,104.7195158068061,96.7849604112663
442,53.40851477595171,104.79575718349874,96.58024986971839
443,52.81103610377285,104.87007162821693,96.3710552968484
444,52.21501963579799,104.94245496391441,96.15740772787223
445,51.62056739454965,105.01290312017406,95.93933881080743
446,51.027779779550386,105.0814121335894,95.71688079866347
447,50.43675554587189,105.14797814813646,95.49006654149504
448,49.847591783746616,105.2125974155351,95.25892947832176
449,49.26038389924208,105.27526629560113,95.02350362891657
450,48.67522559599717,105.33598125658786,94.78382358546583
451,48.09220885801865,105.39473887551787,94.53992450410416
452,47.51142393353591,105.45153583850467,94.29184209632652
453,46.93295931991097,105.50636894106411,94.03961262028075
454,46.35690174959986,105.55923508841587,93.78327287194357
455,45.78333617716143,105.61013129577435,93.52286017618282
456,45.21234576730829,105.65905468862971,93.2584123777092
457,44.64401188399433,105.70600250301834,92.98996783192037
458,44.078414080532454,105.75097208578319,92.7175653956407
459,43.51563009073569,105.7939608948236,92.44124441775976
460,42.955735821073915,105.83496649933484,92.16104472977248
461,42.39880534383814,105.8739865800371,91.87700663622454
462,41.84491089130354,105.91101892939432,91.58917090506583
463,41.29412285088176,105.9460614518221,91.2975787579155
464,40.74650976125276,105.97911216388552,91.00227186024155
465,40.20213830946549,106.01016919448615,90.70329231145855
466,39.66107332899649,106.03923078503863,90.40068263494653
467,39.12337779875495,106.06629528963664,90.09448576799448
468,38.58911284302191,106.09136117520819,89.78474505167172
469,38.05833773231132,106.11442702166049,89.47150422063041
470,37.531109885139955,106.1354915220139,89.1548073928428
471,37.00748487069248,106.15455348252547,88.83469905927625
472,36.487516412367924,106.17161182280157,88.51122407350967
473,35.97125639219338,106.18666557590008,88.18442764129455
474,35.458754856089904,106.19971388842164,87.85435531006416
475,34.95006001997565,106.21075602059034,87.52105295839415
476,34.44521827669091,106.21979134632356,87.18456678541793
477,33.94427420372889,106.22681935329122,86.84494330020055
478,33.447270571756405,106.2318396429641,86.50222931107412
479,32.954248353907715,106.23485193065162,86.15647191493815
480,32.46524673583498,106.2358560455286,85.80771848652876
481,31.98030312649803,106.23485193065162,85.4560166676593
482,31.49945316967634,106.2318396429641,85.10141435643679
483,31.022730756185517,106.22681935329122,84.74395969645656
484,30.550168036780516,106.21979134632356,84.38370106597918
485,30.081795435727553,106.21075602059034,84.02068706709285
486,29.617641665026675,106.19971388842164,83.65496651486458
487,29.157733739266344,106.18666557590008,83.2865884264836
488,28.702096991091736,106.17161182280157,82.91560201040008
489,28.250755087267965,106.15455348252547,82.54205665546307
490,27.803730045319412,106.1354915220139,82.16600192006035
491,27.3610422507264,106.11442702166049,81.78748752126391
492,26.92271047465995,106.09136117520819,81.40656332398419
493,26.488751892235918,106.06629528963664,81.02327933013635
494,26.059182101268924,106.03923078503863,80.63768566782188
495,25.634015141507373,106.01016919448615,80.24983258052887
496,25.21326351433002,105.97911216388552,79.8597704163537
497,24.796938202885066,105.9460614518221,79.46754961724815
498,24.385048692652468,105.91101892939432,79.0732207082942
499,23.97760299241035,105.8739865800371,78.6768342870103
500,23.57460765558636,105.83496649933484,78.27844101269199
501,23.176067801974856,105.7939608948236,77.87809159578978
502,22.781987139800908,105.75097208578319,77.47583678732792
503,22.392367988112145,105.70600250301834,77.0717273683662
504,22.007211299479586,105.65905468862971,76.66581413950857
505,21.62651668298873,105.61013129577435,76.25814791046133
506,21.250282427502206,105.55923508841587,75.84877948964342
507,20.87850552517555,105.50636894106411,75.43775967385223
508,20.511181695207693,105.45153583850467,75.02513923798762
509,20.14830540780794,105.39473887551787,74.61096892483677
510,19.789869908361467,105.33598125658786,74.19529943492287
511,19.435867241775444,105.27526629560113,73.77818141642052
512,19.086288276988018,105.2125974155351,73.35966545513999
513,18.741122731622884,105.14797814813646,72.93980206458377
514,18.400359196771984,105.0814121335894,72.51864167607759
515,18.063985161889395,105.01290312017406,72.0962346289783
516,17.731987039779636,104.94245496391441,71.67263116096177
517,17.404350191663674,104.87007162821693,71.24788139839285
518,17.081058952306492,104.79575718349874,70.82203534678
519,16.762096655189975,104.7195158068061,70.39514288131673
520,16.44744565771549,104.64135178142327,69.96725373751303
521,16.13708736642048,104.56126949647143,69.53841750191798
522,15.83100226219388,104.47927344649774,69.10868360293678
523,15.529169925475436,104.3953682310553,68.67810130174384
524,15.231569061424194,104.3095585542728,68.24671968329442
525,14.938177525041807,104.2218492244152,67.81458764743682
526,14.64897234623658,104.1322451534346,67.3817539001273
527,14.363929754814562,104.04075135651189,66.94826694474956
528,14.083025205384144,103.94737295158892,66.51417507354113
529,13.806233402161094,103.85211515889135,66.07952635912811
530,13.533528323661272,103.75498330044235,65.64436864617076
531,13.264883247268436,103.65598279956711,65.2087495431211
532,13.00027077366511,103.55511918038817,64.77271641409487
533,12.73966285111471,103.4523980673117,64.33631637085927
534,12.483030799583291,103.34782518450494,63.89959626493808
535,12.23034533469006,103.24140635536459,63.462602679836344
536,11.981576591475607,103.1331475019764,63.02538192338516
537,11.736694147977557,103.023054644566,62.58798002020933
538,11.495667048603503,102.91113390094098,62.15044270431827
539,11.258463827291493,102.7973914859245,61.71281541182224
540,11.025052530448521,102.68183371078004,61.27514327377496
541,10.795400739658245,102.56446698262805,60.837471109144005
542,10.569475594148853,102.44529780385385,60.399843417910205
543,10.34724381301305,102.32433277150757,59.96230437429719
544,10.128671717171844,102.20157857669525,59.52489782013244
545,9.91372525107474,102.07704200396259,59.087667258340396
546,9.7023700041287,101.95072993066981,58.650655846569435
547,9.494571231849172,101.82264932635903,58.21390639095293
548,9.290293876726277,101.69280725211354,57.77746134000573
549,9.08950258880006,101.56121085990908,57.341362778656865
550,8.892161745938632,101.42786739195763,56.90565242241918
551,8.698235473813721,101.29278418004344,56.470371611696756
552,8.507687665568199,101.15596864485119,56.035561306230704
553,8.320482001170694,101.01742829528706,55.601262079684076
554,8.136581966452528,100.87717072779208,55.16751411436647
555,7.955950871822768,100.73520362564834,54.734357196098706
556,7.778551870657234,100.59153475827776,54.30183070921839
557,7.604347977357852,100.4461719805338,53.86997363172632
558,7.433302085078967,100.29912323198633,53.43882453057462
559,7.265376983117411,100.15039653619893,53.00842155709646
560,7.100535373963702,100.0,52.57880244257797
561,6.93873989001171,99.84794181274665,52.15000449397237
562,6.779953109924784,99.69423024558198,51.722064589756464
563,6.624137574656232,99.53887365068584,51.29501917592994
564,6.471255803122686,99.38188046051896,50.86890426215681
565,6.321270307528884,99.22325918706089,50.443755418049975
566,6.174143608342911,99.06301842104119,50.0196077695979
567,6.02983824892093,98.90116683116504,49.596495995734045
568,5.888316809781037,98.73771316333207,49.17445432504853
569,5.749541922525773,98.57266623984968,48.75351653264187
570,5.613476283413372,98.40603495864008,48.33371593712063
571,5.480082666577868,98.23782829244169,47.915085397734735
572,5.349323936898553,98.06805528800497,47.49765731165591
573,5.221163062519403,97.89672506528213,47.08146361139706
574,5.095563127019423,97.72384681661183,46.66653576237211
575,4.972487341234959,97.54942980589828,46.25290476059568
576,4.851899054735401,97.37348336778487,45.84060113052235
577,4.73376176695368,97.19601690682285,45.42965492302458
578,4.618039137973476,97.01703989663467,45.02009571350905
579,4.504694998974868,96.83656187907253,44.61195260017055
580,4.393693362340743,96.65459246337183,44.205254202382555
581,4.284998431426113,96.4711413252999,43.80002865922434
582,4.1785746099929275,96.2862182063001,43.39630362814299
583,4.074386511313011,96.09983291263134,42.99410628375021
584,3.972398966941862,95.91199531450289,42.59346331675283
585,3.8725770351664366,95.72271534520516,42.19440093301584
586,3.7748860091298977,95.53200300023592,41.79694485275745
587,3.679291424636708,95.33986833642265,41.40112030987482
588,3.5857590676413835,95.14632147104047,41.00695205139974
589,3.4942549814245667,94.95137258092652,40.61446433708295
590,3.404745473459933,94.75503190159021,40.22368093910614
591,3.317197121975906,94.55730972631999,39.83462514192049
592,3.2315767822158885,94.3582164052861,39.44731974221056
593,3.1478515924012136,94.15776234464047,39.06178704898245
594,3.0659889794007524,93.95595800561247,38.678048883774714
595,2.9859566641115536,93.75281390360198,38.296126580991114
596,2.9077226665546734,93.5483406072689,37.916040988353714
597,2.8312553106906972,93.34254873761981,37.53781246747505
598,2.7565232289593338,93.13544896709156,37.16146089454805
599,2.6834953665477017,92.92705201863204,36.78700566115221
600,2.612140985391823,92.71736866477822,36.414465675174824
601,2.542429667916104,92.50640972673155,36.04385936184565
602,2.474331320515428,92.29418607343085,35.67520466488362
603,2.4078161767847286,92.0807086206228,35.308519047754174
604,2.3428548005007888,91.8659883299301,34.94381949503554
605,2.279418088361235,91.65003620791755,34.58112251389265
606,2.2174772724855214,91.43286330515592,34.22044413565697
607,2.157003922682939,91.21448071528384,33.86179991751075
608,2.097969948492573,90.99489957406811,33.50520494427399
609,2.0403476010001746,90.7741310584619,33.15067383029268
610,1.9841094744370302,90.5521863856616,32.79822072142659
611,1.9292285075657483,90.3290768121619,32.447859297134826
612,1.8756779848581053,90.10481363280988,32.09960277265783
613,1.823431537469873,89.87940817985717,31.75346390129363
614,1.772463144017777,89.65287182201158,31.409454976767172
615,1.7227471311635107,89.4252159634872,31.06758783569062
616,1.6742581740099345,89.19645204305372,30.727873860113124
617,1.6269712963143865,88.96659153308491,30.39032398015809
618,1.580861870524185,88.73564593860615,30.05494867674657
619,1.5359056176392385,88.50362679634166,29.721757984404412
620,1.4920786069067844,88.27054567376092,29.39076149415219
621,1.4493572553531502,88.03641416812478,29.06196835647522
622,1.4077183271574845,87.80124390553124,28.73538728437268
623,1.3671389328722952,87.56504653996107,28.411026556483463
624,1.3275965284957048,87.32783375232333,28.08889402028727
625,1.2890689144001473,87.08961724950079,27.76899709537898
626,1.2515342341223672,86.85040876339566,27.451342776814492
627,1.2149709730193685,86.6102200499755,27.135937638526208
628,1.1793579567950658,86.36906288831922,26.822787836806437
629,1.1446743499022083,86.12694907966406,26.51189911385669
630,1.1108996538242308,85.88389044645255,26.20327680140119
631,1.078013705241508,85.6398988313805,25.896925824362643
632,1.0459966740865345,85.3949860964456,25.59285070459849
633,1.014829061492448,85.14916412199696,25.291055564695895
634,0.9844916976392445,84.90244480578559,24.99154413182332
635,0.9549657395020317,84.654840062016,24.69431974163723
636,0.9262326685055379,84.40636182039897,24.39938534224183
637,0.8982742880890926,84.15702202520548,24.1067434982001
638,0.8710727211861743,83.90683263432226,23.816396394594292
639,0.8446104076226112,83.6558056183088,23.528345841134
640,0.8188701014374075,83.40395295945571,23.24259327631013
